x, y, theta
7.230123999999999995e-01,7.600000000000000080e-06,8.989999949742674801e+01
7.317390000000000283e-01,3.049999999999999936e-05,8.979999967030121866e+01
7.404654999999999987e-01,6.849999999999999806e-05,8.970000038554691457e+01
7.491919999999999691e-01,1.218000000000000061e-04,8.960000018448756975e+01
7.579183999999999921e-01,1.903999999999999931e-04,8.949999990424957730e+01
7.666446000000000094e-01,2.741999999999999971e-04,8.940000039390461950e+01
7.753706999999999683e-01,3.732000000000000183e-04,8.930000020478043155e+01
7.840966000000000324e-01,4.873999999999999752e-04,8.920000017990862773e+01
7.928222999999999798e-01,6.168000000000000305e-04,8.910000001644593226e+01
8.015476999999999741e-01,7.615000000000000241e-04,8.900000053729365845e+01
8.102728999999999626e-01,9.213999999999999534e-04,8.890000030980446866e+01
8.189977999999999980e-01,1.096600000000000092e-03,8.880000015281513015e+01
8.277223999999999693e-01,1.286999999999999950e-03,8.869999978338390179e+01
8.364466000000000401e-01,1.492599999999999960e-03,8.860000004414747821e+01
8.451705000000000467e-01,1.713399999999999906e-03,8.849999948650368253e+01
8.538938999999999835e-01,1.949400000000000004e-03,8.840000009846720275e+01
8.626169000000000198e-01,2.200699999999999878e-03,8.830000039738384032e+01
8.713395000000000445e-01,2.467200000000000122e-03,8.820000011016995245e+01
8.800615999999999994e-01,2.748899999999999868e-03,8.810000007904159247e+01
8.887831999999999955e-01,3.045899999999999823e-03,8.799999996074947717e+01
8.975043000000000326e-01,3.357999999999999874e-03,8.789999953002210020e+01
9.062248000000000525e-01,3.685400000000000134e-03,8.779999954669806073e+01
9.149447000000000552e-01,4.028000000000000330e-03,8.769999974729597625e+01
9.236640000000000406e-01,4.385799999999999595e-03,8.759999982833919319e+01
9.323827000000000087e-01,4.758899999999999936e-03,8.749999943636910871e+01
9.411007000000000122e-01,5.147200000000000213e-03,8.739999945864308017e+01
9.498180000000000511e-01,5.550600000000000152e-03,8.729999964541080715e+01
9.585346000000000144e-01,5.969300000000000300e-03,8.719999958697752618e+01
9.672503999999999547e-01,6.403200000000000384e-03,8.710000017604467359e+01
9.759655000000000413e-01,6.852300000000000404e-03,8.699999996423851201e+01
9.846797999999999940e-01,7.316600000000000360e-03,8.689999979208219827e+01
9.933931999999999762e-01,7.796199999999999658e-03,8.680000043571273238e+01
1.002105800000000047e+00,8.290900000000000353e-03,8.670000057269092508e+01
1.010817599999999983e+00,8.800900000000000389e-03,8.659999976906665609e+01
1.019528400000000001e+00,9.325999999999999221e-03,8.650000014231589773e+01
1.028238299999999938e+00,9.866400000000000864e-03,8.640000010614224379e+01
1.036947300000000016e+00,1.042189999999999957e-02,8.629999949809646864e+01
1.045655199999999896e+00,1.099269999999999935e-02,8.620000015472355415e+01
1.054362199999999916e+00,1.157859999999999966e-02,8.609999963425742919e+01
1.063068099999999960e+00,1.217969999999999990e-02,8.599999984467042680e+01
1.071772900000000028e+00,1.279609999999999949e-02,8.590000039888596461e+01
1.080476699999999957e+00,1.342759999999999961e-02,8.580000001077681304e+01
1.089179300000000072e+00,1.407429999999999966e-02,8.570000058107611096e+01
1.097880900000000048e+00,1.473619999999999965e-02,8.559999951910948823e+01
1.106581199999999932e+00,1.541329999999999957e-02,8.549999994734763220e+01
1.115280300000000002e+00,1.610560000000000117e-02,8.540000041749497939e+01
1.123978300000000097e+00,1.681310000000000096e-02,8.529999948188282133e+01
1.132674900000000040e+00,1.753570000000000129e-02,8.520000035698426188e+01
1.141370299999999949e+00,1.827350000000000155e-02,8.510000036084670683e+01
1.150064399999999987e+00,1.902649999999999827e-02,8.500000032943860617e+01
1.158757199999999932e+00,1.979469999999999841e-02,8.489999995666674693e+01
1.167448599999999947e+00,2.057799999999999907e-02,8.480000018150090568e+01
1.176138700000000092e+00,2.137649999999999967e-02,8.469999945642635453e+01
1.184827300000000028e+00,2.219020000000000020e-02,8.459999975703389907e+01
1.193514500000000034e+00,2.301900000000000127e-02,8.449999974532870795e+01
1.202200200000000052e+00,2.386299999999999880e-02,8.440000014928865824e+01
1.210884499999999919e+00,2.472219999999999973e-02,8.429999952146680187e+01
1.219567199999999962e+00,2.559650000000000120e-02,8.419999995116562275e+01
1.228248400000000018e+00,2.648589999999999972e-02,8.409999999671158832e+01
1.236928000000000027e+00,2.739050000000000165e-02,8.400000037674216458e+01
1.245606100000000049e+00,2.831030000000000005e-02,8.389999964402373678e+01
1.254282499999999967e+00,2.924519999999999897e-02,8.379999989357665413e+01
1.262957300000000060e+00,3.019519999999999843e-02,8.369999968392542655e+01
1.271630400000000050e+00,3.116040000000000129e-02,8.359999972428127535e+01
1.280301799999999934e+00,3.214070000000000121e-02,8.349999983591453656e+01
1.288971499999999937e+00,3.313619999999999760e-02,8.339999958462776419e+01
1.297639399999999998e+00,3.414679999999999799e-02,8.329999993376097223e+01
1.306305599999999956e+00,3.517250000000000237e-02,8.319999944228041500e+01
1.314969899999999914e+00,3.621329999999999688e-02,8.310000008294936436e+01
1.323632399999999931e+00,3.726920000000000233e-02,8.300000041449364119e+01
1.332293100000000008e+00,3.834030000000000077e-02,8.289999999209763359e+01
1.340951900000000085e+00,3.942650000000000321e-02,8.279999978714143083e+01
1.349608799999999942e+00,4.052780000000000271e-02,8.269999949571840148e+01
1.358263699999999963e+00,4.164419999999999927e-02,8.259999995029488673e+01
1.366916699999999985e+00,4.277569999999999983e-02,8.249999971008287503e+01
1.375567699999999949e+00,4.392229999999999746e-02,8.239999960703602255e+01
1.384216600000000019e+00,4.508399999999999908e-02,8.230000047206135605e+01
1.392863600000000091e+00,4.626079999999999776e-02,8.219999972904993513e+01
1.401508399999999988e+00,4.745270000000000044e-02,8.210000047926716604e+01
1.410151200000000049e+00,4.865970000000000018e-02,8.200000014687590522e+01
1.418791899999999995e+00,4.988170000000000104e-02,8.189999972316942944e+01
1.427430399999999988e+00,5.111879999999999896e-02,8.179999987937000583e+01
1.436066700000000029e+00,5.237109999999999682e-02,8.170000014372894270e+01
1.444700899999999955e+00,5.363829999999999987e-02,8.159999957255003267e+01
1.453332800000000091e+00,5.492070000000000285e-02,8.149999963077917187e+01
1.461962399999999995e+00,5.621810000000000002e-02,8.140000034798268302e+01
1.470589799999999947e+00,5.753060000000000118e-02,8.130000011681211447e+01
1.479214900000000110e+00,5.885809999999999653e-02,8.119999993869285504e+01
1.487837599999999982e+00,6.020070000000000282e-02,8.110000046717716771e+01
1.496458000000000066e+00,6.155830000000000329e-02,8.100000044158109347e+01
1.505076099999999917e+00,6.293100000000000083e-02,8.089999937939344932e+01
1.513691700000000084e+00,6.431870000000000642e-02,8.079999941899087901e+01
1.522304799999999902e+00,6.572139999999999926e-02,8.070000025720760561e+01
1.530915500000000096e+00,6.713919999999999610e-02,8.060000027317710192e+01
1.539523699999999939e+00,6.857199999999999407e-02,8.050000047810718229e+01
1.548129400000000100e+00,7.001979999999999316e-02,8.040000056881702051e+01
1.556732599999999911e+00,7.148269999999999624e-02,8.030000004905332389e+01
1.565333199999999980e+00,7.296049999999999758e-02,8.020000012901734010e+01
1.573931200000000086e+00,7.445340000000000291e-02,8.010000011640566697e+01
1.582526600000000006e+00,7.596120000000000649e-02,8.000000009909469156e+01
1.591119299999999903e+00,7.748410000000000020e-02,7.990000050505828710e+01
1.599709400000000059e+00,7.902199999999999502e-02,7.980000009827880092e+01
1.608296799999999971e+00,8.057480000000000198e-02,7.969999990693084158e+01
1.616881400000000024e+00,8.214259999999999617e-02,7.960000055192250557e+01
1.625463300000000055e+00,8.372549999999999437e-02,7.950000039139086994e+01
1.634042500000000064e+00,8.532330000000000469e-02,7.939999953580245062e+01
1.642618799999999935e+00,8.693599999999999939e-02,7.929999993783462742e+01
1.651192299999999946e+00,8.856369999999999520e-02,7.919999995562051254e+01
1.659762900000000041e+00,9.020640000000000602e-02,7.910000040809579502e+01
1.668330700000000055e+00,9.186410000000000409e-02,7.899999986296536747e+01
1.676895500000000094e+00,9.353670000000000040e-02,7.890000048351470241e+01
1.685457500000000053e+00,9.522419999999999496e-02,7.879999971886462617e+01
1.694016399999999978e+00,9.692670000000000452e-02,7.870000041521201695e+01
1.702572399999999986e+00,9.864409999999999845e-02,7.860000024267496599e+01
1.711125400000000019e+00,1.003764999999999935e-01,7.849999979418285534e+01
1.719675300000000018e+00,1.021238000000000007e-01,7.840000011408328362e+01
1.728222200000000042e+00,1.038859000000000032e-01,7.830000000874089494e+01
1.736766000000000032e+00,1.056630999999999959e-01,7.819999960003124784e+01
1.745306599999999930e+00,1.074550999999999978e-01,7.810000040246747233e+01
1.753844200000000075e+00,1.092619999999999980e-01,7.799999963677649362e+01
1.762378500000000070e+00,1.110837999999999964e-01,7.790000036167565156e+01
1.770909700000000031e+00,1.129204999999999931e-01,7.780000003068457204e+01
1.779437600000000064e+00,1.147721000000000019e-01,7.770000057914315050e+01
1.787962400000000063e+00,1.166385999999999951e-01,7.759999946225799761e+01
1.796483800000000075e+00,1.185200000000000004e-01,7.749999973243876639e+01
1.805001899999999937e+00,1.204162000000000010e-01,7.740000021361690585e+01
1.813516700000000093e+00,1.223272999999999999e-01,7.730000035329169350e+01
1.822028200000000098e+00,1.242531999999999942e-01,7.720000009891315074e+01
1.830536299999999894e+00,1.261940000000000006e-01,7.710000001108515733e+01
1.839040999999999926e+00,1.281497000000000053e-01,7.699999978206416529e+01
1.847542299999999971e+00,1.301201999999999914e-01,7.689999936383239287e+01
1.856040099999999970e+00,1.321054999999999868e-01,7.679999957013889400e+01
1.864534399999999925e+00,1.341055999999999915e-01,7.670000009772726912e+01
1.873025200000000057e+00,1.361206000000000083e-01,7.660000037777170689e+01
1.881512499999999921e+00,1.381504000000000065e-01,7.650000036868290465e+01
1.889996299999999962e+00,1.401949999999999863e-01,7.639999976720594077e+01
1.898476400000000064e+00,1.422544000000000031e-01,7.630000049672338491e+01
1.906952999999999898e+00,1.443286000000000013e-01,7.620000002547949691e+01
1.915425900000000015e+00,1.464176000000000089e-01,7.610000027496649011e+01
1.923895200000000028e+00,1.485213999999999979e-01,7.599999982721591607e+01
1.932360800000000101e+00,1.506398999999999933e-01,7.589999976813901128e+01
1.940822599999999953e+00,1.527733000000000008e-01,7.580000034616224980e+01
1.949280799999999925e+00,1.549213000000000118e-01,7.569999987620299464e+01
1.957735199999999898e+00,1.570842000000000072e-01,7.559999943018178215e+01
1.966185700000000036e+00,1.592618000000000089e-01,7.550000037796669972e+01
1.974632500000000013e+00,1.614540999999999893e-01,7.540000019846866053e+01
1.983075399999999933e+00,1.636612000000000067e-01,7.530000051746885958e+01
1.991514500000000076e+00,1.658831000000000055e-01,7.519999991798991346e+01
1.999949699999999941e+00,1.681196000000000079e-01,7.509999978917703345e+01
2.008380900000000135e+00,1.703708999999999918e-01,7.500000034725333364e+01
2.016808300000000109e+00,1.726368000000000069e-01,7.489999966592458236e+01
2.025231600000000132e+00,1.749175000000000035e-01,7.480000016586568279e+01
2.033650999999999875e+00,1.772129000000000065e-01,7.469999962665210091e+01
2.042066300000000112e+00,1.795229999999999881e-01,7.459999995457638988e+01
2.050477599999999789e+00,1.818477000000000010e-01,7.450000004520839525e+01
2.058884799999999959e+00,1.841871999999999954e-01,7.440000008688727462e+01
2.067287900000000178e+00,1.865412999999999932e-01,7.430000038757469838e+01
2.075686900000000001e+00,1.889099999999999946e-01,7.420000064661778083e+01
2.084081799999999873e+00,1.912935000000000052e-01,7.409999993549618580e+01
2.092472499999999958e+00,1.936914999999999887e-01,7.399999999112228011e+01
2.100858999999999810e+00,1.961042000000000063e-01,7.389999988141677534e+01
2.109241200000000038e+00,1.985316000000000025e-01,7.380000039873928586e+01
2.117619299999999871e+00,2.009734999999999994e-01,7.369999967689261666e+01
2.125992999999999800e+00,2.034301000000000026e-01,7.360000007183701598e+01
2.134362400000000104e+00,2.059013000000000093e-01,7.350000049888642195e+01
2.142727600000000177e+00,2.083870999999999918e-01,7.339999955591264325e+01
2.151088300000000064e+00,2.108875000000000055e-01,7.330000023341952442e+01
2.159444699999999884e+00,2.134024999999999950e-01,7.320000002998818900e+01
2.167796699999999799e+00,2.159320999999999879e-01,7.309999973809634355e+01
2.176144199999999973e+00,2.184762000000000093e-01,7.300000048294435828e+01
2.184487299999999799e+00,2.210349000000000064e-01,7.290000053063553764e+01
2.192826000000000164e+00,2.236082000000000070e-01,7.279999957549934209e+01
2.201160100000000064e+00,2.261960000000000082e-01,7.269999984080057231e+01
2.209489699999999779e+00,2.287984000000000129e-01,7.259999958690501387e+01
2.217814699999999917e+00,2.314151999999999876e-01,7.250000028843751920e+01
2.226135199999999870e+00,2.340466999999999964e-01,7.239999951587698490e+01
2.234450999999999965e+00,2.366926000000000030e-01,7.230000018463205436e+01
2.242762200000000039e+00,2.393530000000000102e-01,7.220000055373978398e+01
2.251068800000000092e+00,2.420279999999999931e-01,7.209999996750060802e+01
2.259370699999999843e+00,2.447174000000000016e-01,7.199999991476805405e+01
2.267667900000000181e+00,2.474213000000000107e-01,7.189999973991480431e+01
2.275960299999999936e+00,2.501397000000000204e-01,7.180000022620461664e+01
2.284247999999999834e+00,2.528726000000000029e-01,7.169999997848086082e+01
2.292530900000000038e+00,2.556199000000000110e-01,7.160000014046975991e+01
2.300809000000000104e+00,2.583816999999999919e-01,7.150000004706591028e+01
2.309082300000000032e+00,2.611578999999999984e-01,7.139999975657855202e+01
2.317350699999999986e+00,2.639485999999999777e-01,7.129999968553919132e+01
2.325614199999999965e+00,2.667536999999999825e-01,7.119999989413997810e+01
2.333872799999999970e+00,2.695732000000000128e-01,7.110000007896361751e+01
2.342126500000000000e+00,2.724071000000000131e-01,7.099999993659319841e+01
2.350375200000000220e+00,2.752553999999999834e-01,7.090000024644952248e+01
2.358618900000000185e+00,2.781180999999999792e-01,7.080000070316495453e+01
2.366857700000000175e+00,2.809952000000000005e-01,7.069999991985299914e+01
2.375091400000000075e+00,2.838866999999999918e-01,7.059999975484133472e+01
2.383319999999999883e+00,2.867925000000000058e-01,7.050000028329749568e+01
2.391543599999999881e+00,2.897126999999999897e-01,7.039999973960539137e+01
2.399761999999999951e+00,2.926472999999999991e-01,7.029999997611791684e+01
2.407975299999999930e+00,2.955961999999999756e-01,7.019999999346168806e+01
2.416183499999999817e+00,2.985593999999999748e-01,7.009999948994045837e+01
2.424386399999999941e+00,3.015368999999999966e-01,7.000000031748427887e+01
2.432584199999999974e+00,3.045286999999999855e-01,6.990000001806188834e+01
2.440776699999999799e+00,3.075348999999999999e-01,6.980000004518750245e+01
2.448964000000000141e+00,3.105552999999999786e-01,6.969999980781032889e+01
2.457145999999999830e+00,3.135900999999999827e-01,6.959999928301816396e+01
2.465322599999999920e+00,3.166391000000000067e-01,6.950000003535478754e+01
2.473494000000000081e+00,3.197022999999999948e-01,6.939999961725119704e+01
2.481659899999999919e+00,3.227798000000000056e-01,6.930000054141028443e+01
2.489820499999999992e+00,3.258715999999999835e-01,6.920000035534378924e+01
2.497975700000000021e+00,3.289775999999999812e-01,6.910000023258940871e+01
2.506125500000000006e+00,3.320979000000000014e-01,6.899999946019816832e+01
2.514269800000000110e+00,3.352322999999999831e-01,6.889999962442321646e+01
2.522408599999999890e+00,3.383809999999999873e-01,6.879999959764163009e+01
2.530541899999999789e+00,3.415439000000000114e-01,6.869999948607247120e+01
2.538669599999999971e+00,3.447208999999999968e-01,6.860000047030625581e+01
2.546791799999999828e+00,3.479122000000000048e-01,6.850000034316268227e+01
2.554908499999999805e+00,3.511175999999999742e-01,6.839999963830778995e+01
2.563019499999999784e+00,3.543371000000000159e-01,6.830000018632277659e+01
2.571124900000000046e+00,3.575709000000000248e-01,6.819999976886438731e+01
2.579224599999999867e+00,3.608186999999999922e-01,6.810000041920559966e+01
2.587318699999999971e+00,3.640806999999999793e-01,6.799999991862590321e+01
2.595406999999999798e+00,3.673567999999999834e-01,6.790000051509896650e+01
2.603489600000000070e+00,3.706471000000000071e-01,6.780000040914633530e+01
2.611566499999999902e+00,3.739513999999999894e-01,6.770000016158624589e+01
2.619637599999999900e+00,3.772697999999999885e-01,6.760000009748182492e+01
2.627702900000000064e+00,3.806023000000000045e-01,6.749999991129037369e+01
2.635762300000000113e+00,3.839488999999999819e-01,6.740000035539250689e+01
2.643815899999999885e+00,3.873095999999999761e-01,6.730000006479424712e+01
2.651863599999999987e+00,3.906841999999999815e-01,6.720000067846440572e+01
2.659905499999999812e+00,3.940730000000000066e-01,6.709999950631117827e+01
2.667941400000000129e+00,3.974756999999999874e-01,6.699999969018280410e+01
2.675971300000000053e+00,4.008924999999999850e-01,6.690000003178346333e+01
2.683995299999999862e+00,4.043232999999999966e-01,6.679999961910743878e+01
2.692013199999999884e+00,4.077681000000000222e-01,6.670000025478437067e+01
2.700025199999999792e+00,4.112269000000000063e-01,6.659999952844437132e+01
2.708031099999999913e+00,4.146996000000000016e-01,6.649999969649759635e+01
2.716030899999999804e+00,4.181864000000000137e-01,6.639999953987833692e+01
2.724024599999999907e+00,4.216869999999999785e-01,6.630000012784495311e+01
2.732012199999999780e+00,4.252017000000000158e-01,6.619999977706180516e+01
2.739993600000000029e+00,4.287302000000000057e-01,6.610000061544079131e+01
2.747968900000000048e+00,4.322727000000000097e-01,6.600000036548139803e+01
2.755937999999999999e+00,4.358291000000000248e-01,6.590000023411465691e+01
2.763900899999999883e+00,4.393993999999999955e-01,6.579999991737408038e+01
2.771857499999999863e+00,4.429835999999999774e-01,6.570000015568773222e+01
2.779807900000000220e+00,4.465817000000000259e-01,6.559999959906099321e+01
2.787751899999999949e+00,4.501936000000000271e-01,6.550000050422576692e+01
2.795689700000000055e+00,4.538194999999999868e-01,6.539999952986370602e+01
2.803621099999999977e+00,4.574591000000000074e-01,6.529999988526328991e+01
2.811546100000000159e+00,4.611125999999999836e-01,6.520000031109367455e+01
2.819464799999999993e+00,4.647799000000000236e-01,6.509999994150527414e+01
2.827376999999999807e+00,4.684611000000000192e-01,6.500000006836782518e+01
2.835282799999999881e+00,4.721560000000000201e-01,6.490000031472303021e+01
2.843182200000000215e+00,4.758646999999999738e-01,6.479999989462632470e+01
2.851074999999999804e+00,4.795872999999999942e-01,6.470000008690537641e+01
2.858961400000000097e+00,4.833235000000000170e-01,6.459999998183539560e+01
2.866841200000000089e+00,4.870735999999999954e-01,6.449999987540265067e+01
2.874714500000000061e+00,4.908373999999999793e-01,6.439999941044759169e+01
2.882581099999999896e+00,4.946149000000000240e-01,6.430000035150385429e+01
2.890441200000000155e+00,4.984061000000000186e-01,6.420000032940870938e+01
2.898294700000000113e+00,5.022111000000000214e-01,6.409999957386953895e+01
2.906141400000000097e+00,5.060297999999999741e-01,6.400000033853740433e+01
2.913981600000000061e+00,5.098620999999999848e-01,6.389999973192429650e+01
2.921815000000000051e+00,5.137081999999999482e-01,6.379999953158728232e+01
2.929641699999999904e+00,5.175678000000000223e-01,6.369999991956886731e+01
2.937461599999999784e+00,5.214412000000000491e-01,6.360000009870086757e+01
2.945274799999999971e+00,5.253282000000000229e-01,6.349999975224539384e+01
2.953081200000000184e+00,5.292288000000000547e-01,6.339999960442492721e+01
